0
99.00
500.00
499.00
509.00
497.00
498.00
500.00
498.00
503.00
499.00
499.00
499.00
497.00
499.00
501.00
497.00
499.00
500.00
499.00
50�.00
497.00
498.00
500.00
498.00
503.00
499.00
499.00
499.00
497.00
499.00
501.00
497.00
499.00
500.00
499.00
50�498.00
503.00
498.00
500.00
500.00
497.00
498.00
501.00
499.00
500.00
500.00
499.00
503.00
498.00
499.00
500.00
496.00
499.00
500.00
499.00
500.00
500.00
499.00
503.00
498.00
498.00
499.00
496.00
498.00
500.00
499.00
500.00
499.00
498.00
502.00
496.00
498.00
500.00
496.00
498.00
500.00
498.00
501.00
499.00
499.00
501.00
497.00
499.00
500.00
497.00
497.00
500.00
499.00
502.00
499.00
498.00
500.00
497.00
499.00
499.00
496.00
498.00
500.00
499.00
503.00
498.00
498.00
499.00
496.00
498.00
499.00
498.00
499.00
499.00
499.00
503.00
499.00
499.00
499.00
496.00
499.00
500.00
498.00
499.00
499.00
498.00
503.00
498.00
499.00
500.00
496.00
499.00
500.00
499.00
498.00
499.00
498.00
503.00
498.00
499.00
499.00
496.00
498.00
500.00
499.00
499.00
499.00
499.00
503.00
498.00
498.00
499.00
496.00
499.00
500.00
499.00
499.00
499.00
499.00
502.00
497.00
499.00
499.00
497.00
499.00
499.00
498.00
499.00
499.00
498.00
502.00
497.00
499.00
500.00
495.00
498.00
499.00
498.00
501.00
499.00
499.00
503.00
497.00
498.00
499.00
495.00
498.00
500.00
498.00
502.00
498.00
499.00
500.00
496.00
498.00
500.00
496.00
499.00
500.00
499.00
503.00
499.00
497.00
499.00
497.00
499.00
500.00
497.00
498.00
499.00
498.00
502.00
499.00
498.00
500.00
496.00
498.00
499.00
497.00
498.00
500.00
498.00
502.00
498.00
499.00
499.00
496.00
498.00
500.00
499.00
498.00
500.00
498.00
503.00
497.00
498.00
499.00
496.00
498.00
500.00
498.00
498.00
498.00
498.00
503.00
498.00
499.00
499.00
497.00
499.00
500.00
498.00
498.00
498.00
498.00
503.00
497.00
499.00
500.00
497.00
499.00
500.00
499.00
499.00
499.00
498.00
502.00
497.00
499.00
499.00
495.00
498.00
499.00
497.00
500.00
499.00
499.00
502.00
497.00
498.00
499.00
495.00
499.00
499.00
499.00
501.00
499.00
498.00
501.00
497.00
499.00
500.00
496.00
499.00
499.00
499.00
502.00
499.00
498.00
500.00
497.00
498.00
500.00
496.00
498.00
500.00
498.00
502.00
499.00
499.00
499.00
496.00
499.00
500.00
497.00
499.00
500.00
498.00
503.00
499.00
498.00
499.00
496.00
498.00
500.00
499.00
498.00
499.00
499.00
503.00
499.00
498.00
499.00
496.00
499.00
500.00
498.00
499.00
499.00
499.00
503.00
498.00
498.00
499.00
497.00
498.00
501.00
498.00
499.00
499.00
498.00
503.00
498.00
499.00
499.00
496.00
498.00
500.00
499.00
499.00
499.00
498.00
503.00
498.00
498.00
499.00
496.00
498.00
501.00
499.00
500.00
499.00
499.00
502.00
497.00
498.00
500.00
495.00
499.00
500.00
499.00
500.00
499.00
500.00
504.00
494.00
497.00
496.00
488.00
493.00
509.00
486.00
489.00
495.00
497.00
502.00
497.00
500.00
507.00
493.00
491.00
502.00
497.00
524.00
496.00
485.00
515.00
481.00
489.00
506.00
470.00
480.00
519.00
495.00
532.00
502.00
493.00
509.00
482.00
493.00
502.00
478.00
482.00
517.00
498.00
527.00
504.00
491.00
506.00
476.00
491.00
511.00
488.00
474.00
526.00
486.00
620.00
139.00
504.00
582.00
131.00
881.00
593.00
525.00
989.00
516.00
531.00
627.00
537.00
513.00
544.00
462.00
500.00
553.00
511.00
479.00
545.00
503.00
615.00
508.00
482.00
527.00
112.00
547.00
588.00
493.00
989.00
114.00
490.00
710.00
109.00
495.00
572.00
255.00
593.00
597.00
505.00
989.00
106.00
490.00
625.00
486.00
497.00
534.00
421.00
473.00
550.00
496.00
535.00
535.00
487.00
550.00
479.00
483.00
519.00
424.00
459.00
537.00
489.00
558.00
525.00
477.00
518.00
464.00
476.00
512.00
439.00
459.00
529.00
483.00
540.00
513.00
478.00
498.00
471.00
477.00
505.00
463.00
461.00
512.00
487.00
531.00
501.00
483.00
494.00
471.00
482.00
498.00
484.00
477.00
499.00
485.00
519.00
494.00
485.00
494.00
475.00
483.00
497.00
488.00
478.00
498.00
487.00
513.00
491.00
485.00
493.00
476.00
484.00
496.00
489.00
484.00
497.00
489.00
510.00
489.00
487.00
496.00
476.00
486.00
498.00
490.00
486.00
496.00
489.00
513.00
489.00
488.00
496.00
477.00
486.00
500.00
490.00
491.00
497.00
489.00
509.00
486.00
491.00
496.00
476.00
487.00
498.00
491.00
495.00
498.00
490.00
507.00
486.00
490.00
496.00
480.00
488.00
501.00
492.00
504.00
499.00
490.00
501.00
488.00
491.00
498.00
483.00
488.00
502.00
492.00
508.00
497.00
491.00
498.00
487.00
491.00
498.00
487.00
489.00
502.00
492.00
510.00
497.00
491.00
497.00
486.00
491.00
499.00
491.00
488.00
502.00
494.00
512.00
496.00
493.00
498.00
488.00
493.00
498.00
495.00
490.00
500.00
493.00
508.00
496.00
493.00
498.00
489.00
493.00
499.00
495.00
493.00
500.00
496.00
509.00
495.00
494.00
499.00
487.00
493.00
501.00
496.00
493.00
500.00
495.00
508.00
495.00
494.00
498.00
487.00
494.00
500.00
494.00
495.00
499.00
495.00
509.00
493.00
495.00
498.00
487.00
494.00
502.00
497.00
498.00
500.00
495.00
509.00
493.00
495.00
499.00
487.00
494.00
502.00
495.00
503.00
500.00
495.00
503.00
493.00
496.00
499.00
487.00
493.00
502.00
496.00
507.00
501.00
495.00
500.00
492.00
496.00
500.00
491.00
494.00
503.00
497.00
508.00
500.00
496.00
499.00
492.00
496.00
500.00
493.00
493.00
503.00
496.00
510.00
497.00
496.00
500.00
492.00
496.00
501.00
496.00
493.00
501.00
497.00
510.00
497.00
496.00
500.00
490.00
496.00
501.00
497.00
493.00
502.00
496.00
511.00
498.00
496.00
500.00
489.00
495.00
502.00
497.00
495.00
501.00
495.00
510.00
496.00
496.00
500.00
490.00
495.00
503.00
497.00
495.00
501.00
495.00
511.00
496.00
497.00
501.00
489.00
495.00
503.00
496.00
498.00
501.00
496.00
509.00
495.00
496.00
501.00
488.00
495.00
502.00
497.00
501.00
501.00
497.00
507.00
493.00
496.00
500.00
489.00
494.00
504.00
497.00
508.00
502.00
496.00
503.00
494.00
497.00
501.00
489.00
495.00
504.00
497.00
507.00
500.00
496.00
500.00
492.00
497.00
501.00
493.00
494.00
503.00
498.00
510.00
500.00
497.00
501.00
493.00
496.00
502.00
497.00
494.00
502.00
497.00
511.00
499.00
497.00
500.00
491.00
495.00
502.00
497.00
494.00
501.00
497.00
510.00
499.00
494.00
502.00
490.00
494.00
497.00
494.00
494.00
497.00
506.00
502.00
495.00
500.00
501.00
500.00
505.00
498.00
488.00
479.00
509.00
494.00
515.00
508.00
497.00
514.00
471.00
480.00
501.00
508.00
492.00
523.00
490.00
497.00
488.00
498.00
499.00
483.00
503.00
507.00
492.00
495.00
500.00
494.00
512.00
493.00
493.00
497.00
478.00
486.00
510.00
493.00
521.00
513.00
486.00
519.00
474.00
485.00
510.00
454.00
476.00
532.00
492.00
548.00
518.00
484.00
510.00
473.00
485.00
517.00
450.00
468.00
536.00
494.00
561.00
517.00
482.00
513.00
462.00
478.00
520.00
475.00
467.00
530.00
488.00
571.00
510.00
481.00
512.00
458.00
481.00
521.00
489.00
468.00
525.00
486.00
573.00
502.00
483.00
512.00
450.00
478.00
525.00
492.00
469.00
525.00
486.00
576.00
496.00
481.00
516.00
448.00
477.00
525.00
492.00
478.00
521.00
491.00
570.00
490.00
484.00
512.00
450.00
480.00
523.00
489.00
488.00
519.00
487.00
562.00
485.00
487.00
513.00
442.00
476.00
524.00
491.00
503.00
515.00
485.00
554.00
473.00
486.00
511.00
442.00
475.00
524.00
492.00
531.00
516.00
482.00
525.00
477.00
484.00
514.00
451.00
474.00
525.00
493.00
544.00
512.00
485.00
508.00
475.00
483.00
512.00
462.00
475.00
524.00
489.00
547.00
510.00
483.00
509.00
466.00
484.00
513.00
480.00
475.00
523.00
489.00
553.00
505.00
487.00
505.00
465.00
484.00
514.00
492.00
476.00
517.00
491.00
559.00
501.00
484.00
510.00
459.00
482.00
515.00
493.00
476.00
517.00
491.00
552.00
498.00
484.00
507.00
458.00
480.00
517.00
491.00
481.00
516.00
488.00
554.00
492.00
484.00
507.00
459.00
480.00
521.00
491.00
484.00
514.00
486.00
552.00
486.00
486.00
511.00
453.00
479.00
519.00
490.00
497.00
514.00
486.00
546.00
479.00
487.00
510.00
451.00
477.00
522.00
491.00
516.00
513.00
488.00
531.00
479.00
486.00
509.00
450.00
479.00
519.00
492.00
530.00
510.00
491.00
510.00
481.00
487.00
509.00
471.00
478.00
519.00
491.00
535.00
511.00
488.00
505.00
476.00
486.00
511.00
478.00
478.00
520.00
492.00
536.00
505.00
488.00
505.00
475.00
486.00
510.00
491.00
477.00
516.00
491.00
542.00
504.00
488.00
505.00
471.00
486.00
514.00
494.00
478.00
512.00
493.00
539.00
499.00
489.00
504.00
468.00
485.00
513.00
494.00
482.00
510.00
490.00
540.00
495.00
490.00
505.00
468.00
485.00
514.00
495.00
485.00
513.00
491.00
543.00
492.00
489.00
505.00
467.00
483.00
515.00
493.00
495.00
512.00
492.00
537.00
486.00
491.00
506.00
456.00
484.00
516.00
492.00
507.00
511.00
490.00
525.00
484.00
489.00
506.00
464.00
483.00
514.00
494.00
525.00
511.00
489.00
511.00
482.00
489.00
510.00
469.00
480.00
519.00
492.00
531.00
510.00
489.00
504.00
479.00
487.00
508.00
476.00
480.00
517.00
494.00
536.00
506.00
490.00
505.00
478.00
487.00
511.00
491.00
479.00
513.00
491.00
538.00
502.00
492.00
506.00
477.00
488.00
510.00
495.00
481.00
513.00
491.00
538.00
500.00
489.00
504.00
471.00
487.00
510.00
494.00
481.00
511.00
492.00
541.00
497.00
488.00
505.00
468.00
485.00
513.00
493.00
485.00
511.00
492.00
541.00
494.00
489.00
507.00
468.00
485.00
517.00
495.00
490.00
511.00
490.00
535.00
489.00
491.00
507.00
463.00
484.00
515.00
493.00
504.00
512.00
491.00
527.00
485.00
490.00
506.00
463.00
482.00
517.00
494.00
523.00
511.00
490.00
512.00
486.00
490.00
507.00
467.00
481.00
515.00
492.00
529.00
508.00
489.00
504.00
481.00
489.00
508.00
473.00
481.00
517.00
492.00
535.00
506.00
489.00
505.00
477.00
486.00
507.00
496.00
493.00
501.00
493.00
512.00
498.00
488.00
493.00
489.00
497.00
495.00
496.00
497.00
503.00
486.00
586.00
513.00
479.00
504.00
432.00
484.00
518.00
500.00
464.00
514.00
498.00
531.00
493.00
496.00
498.00
484.00
494.00
497.00
491.00
492.00
497.00
487.00
508.00
493.00
495.00
500.00
490.00
494.00
502.00
497.00
496.00
503.00
495.00
519.00
494.00
494.00
502.00
473.00
488.00
511.00
494.00
501.00
515.00
492.00
551.00
482.00
491.00
513.00
452.00
477.00
528.00
494.00
538.00
514.00
489.00
524.00
476.00
488.00
516.00
453.00
475.00
530.00
492.00
549.00
516.00
483.00
509.00
471.00
483.00
518.00
460.00
470.00
533.00
491.00
557.00
511.00
483.00
511.00
462.00
483.00
517.00
491.00
470.00
526.00
490.00
564.00
506.00
485.00
511.00
459.00
480.00
520.00
491.00
472.00
523.00
489.00
563.00
501.00
486.00
506.00
465.00
487.00
511.00
495.00
485.00
508.00
492.00
535.00
497.00
493.00
504.00
472.00
487.00
509.00
496.00
489.00
507.00
494.00
524.00
496.00
493.00
502.00
478.00
491.00
507.00
496.00
496.00
507.00
494.00
521.00
494.00
494.00
502.00
478.00
492.00
507.00
495.00
503.00
505.00
494.00
514.00
490.00
493.00
504.00
477.00
490.00
507.00
496.00
515.00
504.00
495.00
507.00
490.00
494.00
503.00
480.00
489.00
508.00
497.00
516.00
503.00
494.00
501.00
488.00
493.00
504.00
488.00
489.00
507.00
496.00
517.00
502.00
493.00
502.00
486.00
492.00
504.00
495.00
489.00
506.00
496.00
520.00
500.00
493.00
501.00
487.00
494.00
506.00
496.00
489.00
506.00
495.00
520.00
498.00
494.00
502.00
484.00
493.00
504.00
497.00
491.00
506.00
495.00
522.00
497.00
493.00
502.00
483.00
493.00
505.00
497.00
492.00
504.00
495.00
518.00
496.00
494.00
501.00
484.00
494.00
504.00
496.00
498.00
504.00
496.00
514.00
493.00
495.00
502.00
485.00
493.00
504.00
496.00
503.00
502.00
497.00
506.00
494.00
495.00
500.00
486.00
493.00
504.00
497.00
510.00
503.00
495.00
501.00
491.00
495.00
502.00
488.00
493.00
505.00
496.00
511.00
501.00
495.00
500.00
490.00
495.00
502.00
492.00
492.00
504.00
497.00
514.00
500.00
496.00
501.00
489.00
496.00
502.00
496.00
493.00
503.00
497.00
515.00
499.00
495.00
501.00
488.00
495.00
503.00
496.00
492.00
503.00
496.00
515.00
498.00
495.00
501.00
486.00
494.00
504.00
498.00
494.00
504.00
496.00
515.00
496.00
496.00
500.00
486.00
493.00
504.00
497.00
496.00
503.00
495.00
515.00
494.00
496.00
502.00
485.00
493.00
505.00
497.00
501.00
503.00
498.00
513.00
492.00
496.00
503.00
485.00
493.00
506.00
496.00
509.00
503.00
495.00
505.00
492.00
495.00
503.00
486.00
493.00
505.00
497.00
512.00
502.00
495.00
501.00
491.00
496.00
503.00
490.00
494.00
507.00
498.00
513.00
500.00
495.00
502.00
490.00
495.00
503.00
495.00
492.00
505.00
498.00
515.00
501.00
496.00
501.00
489.00
495.00
503.00
497.00
493.00
504.00
498.00
516.00
499.00
496.00
502.00
488.00
494.00
505.00
498.00
493.00
504.00
498.00
515.00
498.00
495.00
502.00
488.00
494.00
506.00
497.00
494.00
504.00
495.00
515.00
497.00
495.00
501.00
486.00
494.00
503.00
496.00
497.00
502.00
495.00
514.00
493.00
497.00
501.00
485.00
493.00
504.00
496.00
503.00
504.00
496.00
509.00
494.00
496.00
503.00
483.00
492.00
505.00
498.00
511.00
502.00
496.00
503.00
493.00
496.00
502.00
487.00
492.00
506.00
498.00
512.00
502.00
495.00
503.00
491.00
496.00
503.00
491.00
493.00
506.00
497.00
514.00
501.00
497.00
503.00
489.00
495.00
502.00
496.00
492.00
504.00
498.00
515.00
500.00
496.00
501.00
489.00
495.00
503.00
499.00
498.00
503.00
498.00
505.00
497.00
495.00
502.00
498.00
490.00
500.00
493.00
500.00
499.00
502.00
495.00
504.00
499.00
486.00
496.00
483.00
502.00
488.00
521.00
480.00
496.00
506.00
490.00
493.00
504.00
485.00
484.00
496.00
499.00
495.00
503.00
495.00
502.00
495.00
500.00
502.00
494.00
498.00
497.00
497.00
503.00
501.00
496.00
505.00
494.00
497.00
504.00
485.00
495.00
508.00
497.00
519.00
506.00
494.00
506.00
489.00
494.00
508.00
482.00
488.00
515.00
497.00
520.00
506.00
493.00
507.00
479.00
490.00
511.00
493.00
485.00
517.00
495.00
537.00
503.00
492.00
506.00
479.00
490.00
513.00
496.00
482.00
514.00
493.00
542.00
503.00
491.00
508.00
476.00
488.00
514.00
496.00
484.00
512.00
493.00
543.00
498.00
490.00
506.00
471.00
488.00
514.00
494.00
485.00
514.00
492.00
542.00
495.00
491.00
505.00
467.00
486.00
515.00
492.00
490.00
511.00
491.00
539.00
488.00
490.00
509.00
464.00
483.00
517.00
497.00
507.00
512.00
492.00
528.00
485.00
488.00
511.00
463.00
480.00
518.00
496.00
526.00
510.00
488.00
513.00
484.00
488.00
510.00
466.00
480.00
519.00
496.00
531.00
508.00
489.00
508.00
478.00
487.00
510.00
479.00
481.00
518.00
494.00
539.00
505.00
490.00
505.00
475.00
488.00
509.00
493.00
481.00
514.00
492.00
542.00
501.00
489.00
507.00
474.00
486.00
513.00
496.00
481.00
511.00
493.00
541.00
498.00
490.00
507.00
469.00
486.00
516.00
493.00
486.00
513.00
490.00
544.00
494.00
487.00
505.00
464.00
484.00
517.00
493.00
490.00
510.00
490.00
541.00
486.00
491.00
507.00
461.00
483.00
514.00
494.00
503.00
510.00
490.00
533.00
483.00
490.00
509.00
459.00
482.00
517.00
493.00
523.00
511.00
488.00
513.00
481.00
488.00
509.00
466.00
482.00
520.00
494.00
531.00
509.00
490.00
504.00
480.00
488.00
509.00
477.00
479.00
519.00
491.00
537.00
503.00
489.00
505.00
473.00
487.00